time (s),VT("/out") -  VDC("/out") (V)
0.0000,-36.696720E-9
500.00E-12,-246.55609E-6
1.0000E-9,-534.10637E-6
1.5000E-9,-826.79736E-6
2.0000E-9,-1.1215560E-3
2.5000E-9,-1.4137613E-3
3.0000E-9,-1.7056130E-3
3.5000E-9,-1.9956132E-3
4.0000E-9,-2.2832904E-3
4.5000E-9,-2.5686475E-3
5.0000E-9,-2.8512401E-3
5.5000E-9,-3.1316555E-3
6.0000E-9,-3.4089622E-3
6.5000E-9,-3.6820282E-3
7.0000E-9,-3.9514827E-3
7.5000E-9,-4.2170439E-3
8.0000E-9,-4.4783988E-3
8.5000E-9,-4.7346826E-3
9.0000E-9,-4.9860923E-3
9.5000E-9,-5.2321443E-3
10.000E-9,-5.4726797E-3
10.500E-9,-5.7082856E-3
11.000E-9,-5.9379867E-3
11.500E-9,-6.1606262E-3
12.000E-9,-6.3770734E-3
12.500E-9,-6.5865856E-3
13.000E-9,-6.7895940E-3
13.500E-9,-6.9854873E-3
14.000E-9,-7.1736408E-3
14.500E-9,-7.3543147E-3
15.000E-9,-7.5271044E-3
15.500E-9,-7.6919265E-3
16.000E-9,-7.8485605E-3
16.500E-9,-7.9968622E-3
17.000E-9,-8.1366649E-3
17.500E-9,-8.2678253E-3
18.000E-9,-8.3912104E-3
18.500E-9,-8.5056329E-3
19.000E-9,-8.6099942E-3
19.500E-9,-8.7056605E-3
20.000E-9,-8.7918434E-3
20.500E-9,-8.8687717E-3
21.000E-9,-8.9362152E-3
21.500E-9,-8.9941717E-3
22.000E-9,-9.0425477E-3
22.500E-9,-9.0813072E-3
23.000E-9,-9.1104020E-3
23.500E-9,-9.1298048E-3
24.000E-9,-9.1394935E-3
24.500E-9,-9.1394586E-3
25.000E-9,-9.1296996E-3
25.500E-9,-9.1102272E-3
26.000E-9,-9.0810619E-3
26.500E-9,-9.0422344E-3
27.000E-9,-8.9937860E-3
27.500E-9,-8.9357677E-3
28.000E-9,-8.8682410E-3
28.500E-9,-8.7912772E-3
29.000E-9,-8.7049578E-3
29.500E-9,-8.6093740E-3
30.000E-9,-8.5046270E-3
30.500E-9,-8.3908274E-3
31.000E-9,-8.2680956E-3
31.500E-9,-8.1365615E-3
32.000E-9,-7.9963640E-3
32.500E-9,-7.8476515E-3
33.000E-9,-7.6905813E-3
33.500E-9,-7.5253193E-3
34.000E-9,-7.3520404E-3
34.500E-9,-7.1719933E-3
35.000E-9,-6.9842027E-3
35.500E-9,-6.7881135E-3
36.000E-9,-6.5852084E-3
36.500E-9,-6.3751086E-3
37.000E-9,-6.1590026E-3
37.500E-9,-5.9363103E-3
38.000E-9,-5.7068092E-3
38.500E-9,-5.4714743E-3
39.000E-9,-5.2302137E-3
39.500E-9,-4.9843375E-3
40.000E-9,-4.7331552E-3
40.500E-9,-4.4762802E-3
41.000E-9,-4.2149610E-3
41.500E-9,-3.9497344E-3
42.000E-9,-3.6804353E-3
42.500E-9,-3.4066964E-3
43.000E-9,-3.1295905E-3
43.500E-9,-2.8462764E-3
44.000E-9,-2.5625390E-3
44.500E-9,-2.2788502E-3
45.000E-9,-1.9914715E-3
45.500E-9,-1.7034460E-3
46.000E-9,-1.4125419E-3
46.500E-9,-1.1191191E-3
47.000E-9,-824.98542E-6
47.500E-9,-530.65356E-6
48.000E-9,-235.93445E-6
48.500E-9,59.717842E-6
49.000E-9,354.98974E-6
49.500E-9,650.03394E-6
50.000E-9,942.96531E-6
50.500E-9,1.2349059E-3
51.000E-9,1.5265688E-3
51.500E-9,1.8161409E-3
52.000E-9,2.1031325E-3
52.500E-9,2.3877336E-3
53.000E-9,2.6704898E-3
53.500E-9,2.9501113E-3
54.000E-9,3.2267623E-3
54.500E-9,3.4987043E-3
55.000E-9,3.7669752E-3
55.500E-9,4.0322102E-3
56.000E-9,4.2927556E-3
56.500E-9,4.5482345E-3
57.000E-9,4.7987813E-3
57.500E-9,5.0448449E-3
58.000E-9,5.2853236E-3
58.500E-9,5.5203534E-3
59.000E-9,5.7495047E-3
59.500E-9,5.9713408E-3
60.000E-9,6.1869440E-3
60.500E-9,6.3970867E-3
61.000E-9,6.6000050E-3
61.500E-9,6.7961992E-3
62.000E-9,6.9844378E-3
62.500E-9,7.1653991E-3
63.000E-9,7.3393436E-3
63.500E-9,7.5053249E-3
64.000E-9,7.6635209E-3
64.500E-9,7.8136006E-3
65.000E-9,7.9554812E-3
65.500E-9,8.0889773E-3
66.000E-9,8.2139643E-3
66.500E-9,8.3303022E-3
67.000E-9,8.4378717E-3
67.500E-9,8.5350759E-3
68.000E-9,8.6236101E-3
68.500E-9,8.7044690E-3
69.000E-9,8.7755404E-3
69.500E-9,8.8376885E-3
70.000E-9,8.8904123E-3
70.500E-9,8.9338577E-3
71.000E-9,8.9678853E-3
71.500E-9,8.9925024E-3
72.000E-9,9.0076630E-3
72.500E-9,9.0133602E-3
73.000E-9,9.0095838E-3
73.500E-9,8.9963398E-3
74.000E-9,8.9736412E-3
74.500E-9,8.9415124E-3
75.000E-9,8.8999873E-3
75.500E-9,8.8491098E-3
76.000E-9,8.7889338E-3
76.500E-9,8.7195228E-3
77.000E-9,8.6409502E-3
77.500E-9,8.5532992E-3
78.000E-9,8.4566625E-3
78.500E-9,8.3511421E-3
79.000E-9,8.2368498E-3
79.500E-9,8.1139063E-3
80.000E-9,7.9824417E-3
80.500E-9,7.8425950E-3
81.000E-9,7.6945142E-3
81.500E-9,7.5383556E-3
82.000E-9,7.3736505E-3
82.500E-9,7.2011390E-3
83.000E-9,7.0215855E-3
83.500E-9,6.8344041E-3
84.000E-9,6.6401524E-3
84.500E-9,6.4388691E-3
85.000E-9,6.2303063E-3
85.500E-9,6.0150438E-3
86.000E-9,5.7938731E-3
86.500E-9,5.5664098E-3
87.000E-9,5.3331812E-3
87.500E-9,5.0943010E-3
88.000E-9,4.8500834E-3
88.500E-9,4.5995739E-3
89.000E-9,4.3440840E-3
89.500E-9,4.0849973E-3
90.000E-9,3.8211515E-3
90.500E-9,3.5530696E-3
91.000E-9,3.2809370E-3
91.500E-9,3.0056584E-3
92.000E-9,2.7270647E-3
92.500E-9,2.4456640E-3
93.000E-9,2.1608424E-3
93.500E-9,1.8735301E-3
94.000E-9,1.5848379E-3
94.500E-9,1.2941951E-3
95.000E-9,1.0017895E-3
95.500E-9,708.02771E-6
96.000E-9,413.88926E-6
96.500E-9,119.14102E-6
97.000E-9,-175.65263E-6
97.500E-9,-471.20052E-6
98.000E-9,-766.47054E-6
98.500E-9,-1.0602539E-3
99.000E-9,-1.3532297E-3
99.500E-9,-1.6451581E-3
100.00E-9,-1.9356502E-3
100.50E-9,-2.2237087E-3
101.00E-9,-2.5095912E-3
101.50E-9,-2.7927343E-3
102.00E-9,-3.0737849E-3
102.50E-9,-3.3517801E-3
103.00E-9,-3.6255960E-3
103.50E-9,-3.8958602E-3
104.00E-9,-4.1622935E-3
104.50E-9,-4.4245797E-3
105.00E-9,-4.6818502E-3
105.50E-9,-4.9343037E-3
106.00E-9,-5.1814543E-3
106.50E-9,-5.4231424E-3
107.00E-9,-5.6599629E-3
107.50E-9,-5.8909312E-3
108.00E-9,-6.1148808E-3
108.50E-9,-6.3326903E-3
109.00E-9,-6.5436106E-3
109.50E-9,-6.7480803E-3
110.00E-9,-6.9454803E-3
110.50E-9,-7.1351784E-3
111.00E-9,-7.3174404E-3
111.50E-9,-7.4918565E-3
112.00E-9,-7.6583433E-3
112.50E-9,-7.8166777E-3
113.00E-9,-7.9667141E-3
113.50E-9,-8.1082838E-3
114.00E-9,-8.2412416E-3
114.50E-9,-8.3664773E-3
115.00E-9,-8.4827757E-3
115.50E-9,-8.5890142E-3
116.00E-9,-8.6865910E-3
116.50E-9,-8.7746999E-3
117.00E-9,-8.8535750E-3
117.50E-9,-8.9229805E-3
118.00E-9,-8.9829140E-3
118.50E-9,-9.0332789E-3
119.00E-9,-9.0740375E-3
119.50E-9,-9.1051396E-3
120.00E-9,-9.1265554E-3
120.50E-9,-9.1382609E-3
121.00E-9,-9.1402444E-3
121.50E-9,-9.1325034E-3
122.00E-9,-9.1150463E-3
122.50E-9,-9.0878915E-3
123.00E-9,-9.0510677E-3
123.50E-9,-9.0046139E-3
124.00E-9,-8.9485791E-3
124.50E-9,-8.8830227E-3
125.00E-9,-8.8080140E-3
125.50E-9,-8.7236322E-3
126.00E-9,-8.6299667E-3
126.50E-9,-8.5271164E-3
127.00E-9,-8.4151901E-3
127.50E-9,-8.2943063E-3
128.00E-9,-8.1645926E-3
128.50E-9,-8.0261864E-3
129.00E-9,-7.8792338E-3
129.50E-9,-7.7238905E-3
130.00E-9,-7.5603206E-3
130.50E-9,-7.3886970E-3
131.00E-9,-7.2101762E-3
131.50E-9,-7.0238857E-3
132.00E-9,-6.8293361E-3
132.50E-9,-6.6278884E-3
133.00E-9,-6.4192182E-3
133.50E-9,-6.2044777E-3
134.00E-9,-5.9831058E-3
134.50E-9,-5.7548800E-3
135.00E-9,-5.5207669E-3
135.50E-9,-5.2806767E-3
136.00E-9,-5.0359081E-3
136.50E-9,-4.7857783E-3
137.00E-9,-4.5299061E-3
137.50E-9,-4.2695296E-3
138.00E-9,-4.0051841E-3
138.50E-9,-3.7367060E-3
139.00E-9,-3.4637318E-3
139.50E-9,-3.1873283E-3
140.00E-9,-2.9041825E-3
140.50E-9,-2.6208126E-3
141.00E-9,-2.3378380E-3
141.50E-9,-2.0509218E-3
142.00E-9,-1.7636456E-3
142.50E-9,-1.4732124E-3
143.00E-9,-1.1799781E-3
143.50E-9,-886.06972E-6
144.00E-9,-591.85041E-6
144.50E-9,-297.20065E-6
145.00E-9,-1.5435526E-6
145.50E-9,293.79367E-6
146.00E-9,588.96998E-6
146.50E-9,882.09683E-6
147.00E-9,1.1742974E-3
147.50E-9,1.4662842E-3
148.00E-9,1.7562439E-3
148.50E-9,2.0436844E-3
149.00E-9,2.3287969E-3
149.50E-9,2.6121278E-3
150.00E-9,2.8923849E-3
150.50E-9,3.1697326E-3
151.00E-9,3.4424264E-3
151.50E-9,3.7115077E-3
152.00E-9,3.9776153E-3
152.50E-9,4.2390890E-3
153.00E-9,4.4955488E-3
153.50E-9,4.7471310E-3
154.00E-9,4.9942874E-3
154.50E-9,5.2359105E-3
155.00E-9,5.4721372E-3
155.50E-9,5.7025358E-3
156.00E-9,5.9256570E-3
156.50E-9,6.1425929E-3
157.00E-9,6.3541242E-3
157.50E-9,6.5584717E-3
158.00E-9,6.7561406E-3
158.50E-9,6.9458862E-3
159.00E-9,7.1283949E-3
159.50E-9,7.3039319E-3
160.00E-9,7.4715397E-3
160.50E-9,7.6313990E-3
161.00E-9,7.7831747E-3
161.50E-9,7.9267834E-3
162.00E-9,8.0620375E-3
162.50E-9,8.1888104E-3
163.00E-9,8.3069605E-3
163.50E-9,8.4163664E-3
164.00E-9,8.5153953E-3
164.50E-9,8.6057798E-3
165.00E-9,8.6885389E-3
165.50E-9,8.7615127E-3
166.00E-9,8.8255844E-3
166.50E-9,8.8802411E-3
167.00E-9,8.9256314E-3
167.50E-9,8.9616117E-3
168.00E-9,8.9881881E-3
168.50E-9,9.0053122E-3
169.00E-9,9.0129752E-3
169.50E-9,9.0111646E-3
170.00E-9,8.9998845E-3
170.50E-9,8.9791458E-3
171.00E-9,8.9489709E-3
171.50E-9,8.9093915E-3
172.00E-9,8.8604494E-3
172.50E-9,8.8021966E-3
173.00E-9,8.7346944E-3
173.50E-9,8.6580145E-3
174.00E-9,8.5722377E-3
174.50E-9,8.4774549E-3
175.00E-9,8.3737662E-3
175.50E-9,8.2612814E-3
176.00E-9,8.1401193E-3
176.50E-9,8.0104081E-3
177.00E-9,7.8722850E-3
177.50E-9,7.7258960E-3
178.00E-9,7.5713959E-3
178.50E-9,7.4083763E-3
179.00E-9,7.2375086E-3
179.50E-9,7.0595031E-3
180.00E-9,6.8738567E-3
180.50E-9,6.6810864E-3
181.00E-9,6.4812473E-3
181.50E-9,6.2740912E-3
182.00E-9,6.0601919E-3
182.50E-9,5.8403289E-3
183.00E-9,5.6141285E-3
183.50E-9,5.3821110E-3
184.00E-9,5.1443914E-3
184.50E-9,4.9012815E-3
185.00E-9,4.6518393E-3
185.50E-9,4.3973622E-3
186.00E-9,4.1392211E-3
186.50E-9,3.8762692E-3
187.00E-9,3.6090242E-3
187.50E-9,3.3376718E-3
188.00E-9,3.0631110E-3
188.50E-9,2.7851759E-3
189.00E-9,2.5043721E-3
189.50E-9,2.2200898E-3
190.00E-9,1.9332549E-3
190.50E-9,1.6449740E-3
191.00E-9,1.3546806E-3
191.50E-9,1.0625613E-3
192.00E-9,769.02235E-6
192.50E-9,475.04112E-6
193.00E-9,180.38607E-6
193.50E-9,-114.37932E-6
194.00E-9,-409.96335E-6
194.50E-9,-705.33441E-6
195.00E-9,-999.28391E-6
195.50E-9,-1.2924902E-3
196.00E-9,-1.5847146E-3
196.50E-9,-1.8755671E-3
197.00E-9,-2.1640490E-3
197.50E-9,-2.4504187E-3
198.00E-9,-2.7341114E-3
198.50E-9,-3.0157775E-3
199.00E-9,-3.2944506E-3
199.50E-9,-3.5690028E-3
200.00E-9,-3.8400646E-3
200.50E-9,-4.1073574E-3
201.00E-9,-4.3705629E-3
201.50E-9,-4.6288080E-3
202.00E-9,-4.8822936E-3
202.50E-9,-5.1305312E-3
203.00E-9,-5.3739735E-3
203.50E-9,-5.6118725E-3
204.00E-9,-5.8433395E-3
204.50E-9,-6.0688218E-3
205.00E-9,-6.2877592E-3
205.50E-9,-6.5005283E-3
206.00E-9,-6.7065135E-3
206.50E-9,-6.9050171E-3
207.00E-9,-7.0963470E-3
207.50E-9,-7.2800600E-3
208.00E-9,-7.4560737E-3
208.50E-9,-7.6241500E-3
209.00E-9,-7.7841354E-3
209.50E-9,-7.9366426E-3
210.00E-9,-8.0807502E-3
210.50E-9,-8.2155055E-3
211.00E-9,-8.3418708E-3
211.50E-9,-8.4591984E-3
212.00E-9,-8.5676035E-3
212.50E-9,-8.6668601E-3
213.00E-9,-8.7569150E-3
213.50E-9,-8.8376489E-3
214.00E-9,-8.9089876E-3
214.50E-9,-8.9708505E-3
215.00E-9,-9.0231745E-3
215.50E-9,-9.0659033E-3
216.00E-9,-9.0989922E-3
216.50E-9,-9.1224059E-3
217.00E-9,-9.1361197E-3
217.50E-9,-9.1401192E-3
218.00E-9,-9.1344001E-3
218.50E-9,-9.1189684E-3
219.00E-9,-9.0938406E-3
219.50E-9,-9.0590431E-3
220.00E-9,-9.0146127E-3
220.50E-9,-8.9605965E-3
221.00E-9,-8.8970515E-3
221.50E-9,-8.8240450E-3
222.00E-9,-8.7416541E-3
222.50E-9,-8.6499660E-3
223.00E-9,-8.5490777E-3
223.50E-9,-8.4390958E-3
224.00E-9,-8.3201366E-3
224.50E-9,-8.1923259E-3
225.00E-9,-8.0557990E-3
225.50E-9,-7.9107001E-3
226.00E-9,-7.7571827E-3
226.50E-9,-7.5954091E-3
227.00E-9,-7.4255505E-3
227.50E-9,-7.2069847E-3
228.00E-9,-7.0011261E-3
228.50E-9,-6.8217327E-3
229.00E-9,-6.6194244E-3
229.50E-9,-6.4512109E-3
230.00E-9,-6.2556029E-3
230.50E-9,-6.0266769E-3
231.00E-9,-5.8037497E-3
231.50E-9,-5.5688782E-3
232.00E-9,-5.3113628E-3
232.50E-9,-5.0577941E-3
233.00E-9,-4.8160700E-3
233.50E-9,-4.5612789E-3
234.00E-9,-4.3234638E-3
234.50E-9,-4.0380101E-3
235.00E-9,-3.7829156E-3
235.50E-9,-3.5077527E-3
236.00E-9,-3.2432893E-3
236.50E-9,-2.9676699E-3
237.00E-9,-2.6841464E-3
237.50E-9,-2.3999868E-3
238.00E-9,-2.1131119E-3
238.50E-9,-1.8245326E-3
239.00E-9,-1.5331981E-3
239.50E-9,-1.2406205E-3
240.00E-9,-947.43882E-6
240.50E-9,-653.50313E-6
241.00E-9,-358.25878E-6
241.50E-9,-62.921925E-6
242.00E-9,232.12737E-6
242.50E-9,526.64875E-6
243.00E-9,821.08294E-6
243.50E-9,1.1144307E-3
244.00E-9,1.4058028E-3
244.50E-9,1.6955720E-3
245.00E-9,1.9842113E-3
245.50E-9,2.2704465E-3
246.00E-9,2.5544249E-3
246.50E-9,2.8343518E-3
247.00E-9,3.1113014E-3
247.50E-9,3.3859446E-3
248.00E-9,3.6565598E-3
248.50E-9,3.9227372E-3
249.00E-9,4.1846286E-3
249.50E-9,4.4427176E-3
250.00E-9,4.6958375E-3
250.50E-9,4.9441354E-3
251.00E-9,5.1861267E-3
251.50E-9,5.4226859E-3
252.00E-9,5.6543194E-3
252.50E-9,5.8796301E-3
253.00E-9,6.0989141E-3
253.50E-9,6.3108565E-3
254.00E-9,6.5162077E-3
254.50E-9,6.7153360E-3
255.00E-9,6.9071004E-3
255.50E-9,7.0917295E-3
256.00E-9,7.2688281E-3
256.50E-9,7.4383017E-3
257.00E-9,7.5999280E-3
257.50E-9,7.7522514E-3
258.00E-9,7.8965956E-3
258.50E-9,8.0337877E-3
259.00E-9,8.1620002E-3
259.50E-9,8.2818773E-3
260.00E-9,8.3929308E-3
260.50E-9,8.4952109E-3
261.00E-9,8.5885315E-3
261.50E-9,8.6728302E-3
262.00E-9,8.7480011E-3
262.50E-9,8.8139723E-3
263.00E-9,8.8698635E-3
263.50E-9,8.9166277E-3
264.00E-9,8.9547884E-3
264.50E-9,8.9831904E-3
265.00E-9,9.0023203E-3
265.50E-9,9.0119185E-3
266.00E-9,9.0120858E-3
266.50E-9,9.0027705E-3
267.00E-9,8.9840065E-3
267.50E-9,8.9558023E-3
268.00E-9,8.9181931E-3
268.50E-9,8.8712162E-3
269.00E-9,8.8149224E-3
269.50E-9,8.7493706E-3
270.00E-9,8.6746305E-3
270.50E-9,8.5907810E-3
271.00E-9,8.4979109E-3
271.50E-9,8.3961181E-3
272.00E-9,8.2855106E-3
272.50E-9,8.1662051E-3
273.00E-9,8.0383279E-3
273.50E-9,7.9020142E-3
274.00E-9,7.7574082E-3
274.50E-9,7.6046627E-3
275.00E-9,7.4429715E-3
275.50E-9,7.2734524E-3
276.00E-9,7.0971428E-3
276.50E-9,6.9129746E-3
277.00E-9,6.7217242E-3
277.50E-9,6.5233241E-3
278.00E-9,6.3175906E-3
278.50E-9,6.1050611E-3
279.00E-9,5.8865170E-3
279.50E-9,5.6615888E-3
280.00E-9,5.4307930E-3
280.50E-9,5.1942444E-3
281.00E-9,4.9522531E-3
281.50E-9,4.7038891E-3
282.00E-9,4.4504362E-3
282.50E-9,4.1932523E-3
283.00E-9,3.9312061E-3
283.50E-9,3.6648099E-3
284.00E-9,3.3942500E-3
284.50E-9,3.1204192E-3
285.00E-9,2.8431552E-3
285.50E-9,2.5629609E-3
286.00E-9,2.2792307E-3
286.50E-9,1.9928862E-3
287.00E-9,1.7050297E-3
287.50E-9,1.4150987E-3
288.00E-9,1.1232790E-3
288.50E-9,829.97620E-6
289.00E-9,536.16553E-6
289.50E-9,241.61707E-6
290.00E-9,-53.106669E-6
290.50E-9,-348.71333E-6
291.00E-9,-644.17190E-6
291.50E-9,-938.27409E-6
292.00E-9,-1.2316974E-3
292.50E-9,-1.5242044E-3
293.00E-9,-1.8154039E-3
293.50E-9,-2.1042961E-3
294.00E-9,-2.3911397E-3
294.50E-9,-2.6753690E-3
295.00E-9,-2.9576377E-3
295.50E-9,-3.2369757E-3
296.00E-9,-3.5122515E-3
296.50E-9,-3.7840983E-3
297.00E-9,-4.0522382E-3
297.50E-9,-4.3163507E-3
298.00E-9,-4.5755585E-3
298.50E-9,-4.8300644E-3
299.00E-9,-5.0793774E-3
299.50E-9,-5.3239559E-3
300.00E-9,-5.5630456E-3
300.50E-9,-5.7957509E-3
301.00E-9,-6.0225243E-3
301.50E-9,-6.2428012E-3
302.00E-9,-6.4569648E-3
302.50E-9,-6.6643923E-3
303.00E-9,-6.8643783E-3
303.50E-9,-7.0572363E-3
304.00E-9,-7.2425181E-3
304.50E-9,-7.4201413E-3
305.00E-9,-7.5898654E-3
305.50E-9,-7.7515353E-3
306.00E-9,-7.9057785E-3
306.50E-9,-8.0516554E-3
307.00E-9,-8.1881963E-3
307.50E-9,-8.3163835E-3
308.00E-9,-8.4355570E-3
308.50E-9,-8.5458350E-3
309.00E-9,-8.6469870E-3
309.50E-9,-8.7389592E-3
310.00E-9,-8.8216296E-3
310.50E-9,-8.8949222E-3
311.00E-9,-8.9587543E-3
311.50E-9,-9.0130607E-3
312.00E-9,-9.0577829E-3
312.50E-9,-9.0928742E-3
313.00E-9,-9.1182971E-3
313.50E-9,-9.1340250E-3
314.00E-9,-9.1400411E-3
314.50E-9,-9.1363391E-3
315.00E-9,-9.1229229E-3
315.50E-9,-9.0998067E-3
316.00E-9,-9.0670149E-3
316.50E-9,-9.0245822E-3
317.00E-9,-8.9725535E-3
317.50E-9,-8.9109839E-3
318.00E-9,-8.8399383E-3
318.50E-9,-8.7594920E-3
319.00E-9,-8.6697300E-3
319.50E-9,-8.5707472E-3
320.00E-9,-8.4626484E-3
320.50E-9,-8.3455477E-3
321.00E-9,-8.2195691E-3
321.50E-9,-8.0848458E-3
322.00E-9,-7.9415202E-3
322.50E-9,-7.7897439E-3
323.00E-9,-7.6296775E-3
323.50E-9,-7.4614901E-3
324.00E-9,-7.2432147E-3
324.50E-9,-7.0382016E-3
325.00E-9,-6.8607033E-3
325.50E-9,-6.6597446E-3
326.00E-9,-6.4942901E-3
326.50E-9,-6.3007152E-3
327.00E-9,-6.0728365E-3
327.50E-9,-5.8513436E-3
328.00E-9,-5.6176526E-3
328.50E-9,-5.3603345E-3
329.00E-9,-5.1073568E-3
329.50E-9,-4.8670352E-3
330.00E-9,-4.6131922E-3
330.50E-9,-4.3774547E-3
331.00E-9,-4.0915765E-3
331.50E-9,-3.8380340E-3
332.00E-9,-3.5634221E-3
332.50E-9,-3.3005323E-3
333.00E-9,-3.0258831E-3
333.50E-9,-2.7428211E-3
334.00E-9,-2.4592683E-3
334.50E-9,-2.1728390E-3
335.00E-9,-1.8846858E-3
335.50E-9,-1.5936945E-3
336.00E-9,-1.3014047E-3
336.50E-9,-1.0084005E-3
337.00E-9,-714.65327E-6
337.50E-9,-419.59620E-6
338.00E-9,-124.35246E-6
338.50E-9,170.83918E-6
339.00E-9,465.54877E-6
339.50E-9,760.11327E-6
340.00E-9,1.0537126E-3
340.50E-9,1.3453733E-3
341.00E-9,1.6355068E-3
341.50E-9,1.9245687E-3
342.00E-9,2.2112918E-3
342.50E-9,2.4958194E-3
343.00E-9,2.7763539E-3
343.50E-9,3.0539716E-3
344.00E-9,3.3293462E-3
344.50E-9,3.6007511E-3
345.00E-9,3.8677736E-3
345.50E-9,4.1305670E-3
346.00E-9,4.3896177E-3
346.50E-9,4.6437538E-3
347.00E-9,4.8931232E-3
347.50E-9,5.1362318E-3
348.00E-9,5.3739604E-3
348.50E-9,5.6068199E-3
349.00E-9,5.8334038E-3
349.50E-9,6.0540108E-3
350.00E-9,6.2673141E-3
350.50E-9,6.4740716E-3
351.00E-9,6.6746567E-3
351.50E-9,6.8679175E-3
352.00E-9,7.0540854E-3
352.50E-9,7.2327615E-3
353.00E-9,7.4038505E-3
353.50E-9,7.5671281E-3
354.00E-9,7.7211162E-3
354.50E-9,7.8671593E-3
355.00E-9,8.0060993E-3
355.50E-9,8.1360800E-3
356.00E-9,8.2577563E-3
356.50E-9,8.3706322E-3
357.00E-9,8.4747587E-3
357.50E-9,8.5699467E-3
358.00E-9,8.6561322E-3
358.50E-9,8.7332070E-3
359.00E-9,8.8010975E-3
359.50E-9,8.8597282E-3
360.00E-9,8.9081408E-3
360.50E-9,8.9474178E-3
361.00E-9,8.9781570E-3
361.50E-9,8.9990681E-3
362.00E-9,9.0107119E-3
362.50E-9,9.0128058E-3
363.00E-9,9.0054730E-3
363.50E-9,8.9886630E-3
364.00E-9,8.9624206E-3
364.50E-9,8.9267612E-3
365.00E-9,8.8817280E-3
365.50E-9,8.8273662E-3
366.00E-9,8.7637344E-3
366.50E-9,8.6908993E-3
367.00E-9,8.6089383E-3
367.50E-9,8.5179379E-3
368.00E-9,8.4179943E-3
368.50E-9,8.3092132E-3
369.00E-9,8.1917098E-3
369.50E-9,8.0656081E-3
370.00E-9,7.9310417E-3
370.50E-9,7.7881527E-3
371.00E-9,7.6370924E-3
371.50E-9,7.4780203E-3
372.00E-9,7.3098734E-3
372.50E-9,7.1340703E-3
373.00E-9,6.9518721E-3
373.50E-9,6.7618515E-3
374.00E-9,6.5649605E-3
374.50E-9,6.3610592E-3
375.00E-9,6.1499696E-3
375.50E-9,5.9322496E-3
376.00E-9,5.7087278E-3
376.50E-9,5.4789936E-3
377.00E-9,5.2435900E-3
377.50E-9,5.0026267E-3
378.00E-9,4.7564230E-3
378.50E-9,4.5040017E-3
379.00E-9,4.2466996E-3
379.50E-9,3.9859231E-3
380.00E-9,3.7204823E-3
380.50E-9,3.4509094E-3
381.00E-9,3.1773895E-3
381.50E-9,2.9008376E-3
382.00E-9,2.6210785E-3
382.50E-9,2.3386251E-3
383.00E-9,2.0528558E-3
383.50E-9,1.7647088E-3
384.00E-9,1.4753021E-3
384.50E-9,1.1840577E-3
385.00E-9,891.16561E-6
385.50E-9,597.03288E-6
386.00E-9,302.64278E-6
386.50E-9,7.7594437E-6
387.00E-9,-287.59313E-6
387.50E-9,-582.92078E-6
388.00E-9,-877.25719E-6
388.50E-9,-1.1708398E-3
389.00E-9,-1.4636368E-3
389.50E-9,-1.7551605E-3
390.00E-9,-2.0444542E-3
390.50E-9,-2.3317564E-3
391.00E-9,-2.6170147E-3
391.50E-9,-2.8997665E-3
392.00E-9,-3.1790906E-3
392.50E-9,-3.4552113E-3
393.00E-9,-3.7275950E-3
393.50E-9,-3.9968220E-3
394.00E-9,-4.2619999E-3
394.50E-9,-4.5220792E-3
395.00E-9,-4.7776305E-3
395.50E-9,-5.0283674E-3
396.00E-9,-5.2740112E-3
396.50E-9,-5.5137732E-3
397.00E-9,-5.7478137E-3
397.50E-9,-5.9756927E-3
398.00E-9,-6.1972587E-3
398.50E-9,-6.4122359E-3
399.00E-9,-6.6214384E-3
399.50E-9,-6.8236986E-3
400.00E-9,-7.0177928E-3
400.50E-9,-7.2048528E-3
401.00E-9,-7.3840588E-3
401.50E-9,-7.5555106E-3
402.00E-9,-7.7193155E-3
402.50E-9,-7.8750242E-3
403.00E-9,-8.0219737E-3
403.50E-9,-8.1605672E-3
404.00E-9,-8.2903982E-3
404.50E-9,-8.4114503E-3
405.00E-9,-8.5235392E-3
405.50E-9,-8.6265727E-3
406.00E-9,-8.7204295E-3
